307
360
354
342
326
325
327
324
324
316
334
352
352
355
362
369
375
379
378
373
365
352
337
321
306
291
279
269
262
279
307
309
306
297
289
295
317
324
298
279
290
322
327
301
295
304
306
305
306
314
320
323
325
330
336
333
327
341
377
394
351
317
328
355
358
329
310
307
314
322
325
323
319
322
325
318
303
285
283
317
370
437
520
502
402
275
204
178
180
217
274
322
329
321
322
338
342
327
316
320
335
340
334
338
341
334
334
336
334
341
344
333
335
350
364
371
360
358
358
345
346
357
364
367
368
368
369
365
354
344
337
352
331
285
268
277
285
273
264
269
275
276
273
272
274
282
283
281
292
303
291
275
280
288
282
278
285
296
300
298
303
299
289
285
292
308
322
322
313
304
299
303
307
296
295
296
285
285
292
287
282
285
280
266
245
226
234
283
370
484
574
516
364
241
187
181
214
264
308
321
324
330
326
321
332
339
334
329
335
342
348
350
346
342
344
374
395
371
350
371
386
371
362
369
379
385
388
388
402
417
406
394
398
406
408
411
416
393
354
344
344
346
355
358
350
326
314
326
347
352
336
325
332
338
349
364
368
362
348
332
324
332
346
352
349
338
335
341
352
363
369
364
369
394
392
363
358
372
367
350
342
337
333
334
347
359
353
328
323
335
331
296
260
251
283
352
430
537
580
495
356
270
223
207
230
294
337
334
324
324
330
332
328
324
334
346
339
323
318
323
331
337
337
331
336
342
340
339
342
348
358
370
359
343
351
368
378
389
393
373
368
388
392
375
360
356
364
357
338
335
343
333
313
316
333
331
322
330
335
335
332
323
321
336
346
330
311
310
316
321
328
324
319
325
340
362
363
328
310
324
361
387
366
330
323
335
352
351
325
307
307
313
327
326
324
326
322
314
299
277
265
270
326
408
489
555
519
393
278
217
186
198
252
322
352
337
315
315
330
340
336
330
336
343
345
341
350
355
336
313
314
337
346
334
327
328
334
345
345
329
322
335
361
365
351
346
361
385
379
360
352
355
370
353
312
296
308
329
321
287
275
288
303
320
310
285
284
302
308
304
303
309
315
309
308
304
305
313
304
281
269
282
291
291
295
300
301
308
315
323
334
343
334
324
325
316
302
296
298
307
311
302
294
301
305
305
305
307
313
288
252
244
271
328
424
541
555
468
336
238
194
169
187
240
305
333
326
316
314
326
333
332
333
340
354
358
353
348
344
347
358
369
364
352
356
366
371
371
380
385
389
398
409
413
397
399
423
426
414
409
409
411
405
401
393
367
346
337
336
335
330
333
334
328
336
349
327
301
305
321
327
316
308
314
317
319
320
309
299
304
307
312
313
315
323
306
279
278
295
311
302
286
287
303
325
331
324
336
363
355
317
299
312
322
308
298
299
306
301
287
288
287
300
314
301
281
258
243
264
331
411
490
566
501
367
241
178
159
157
190
256
307
321
314
306
311
313
309
319
333
347
350
339
331
335
350
362
356
355
361
364
373
375
373
376
393
395
385
391
408
416
416
416
416
421
435
454
439
402
385
392
401
376
339
327
329
331
336
345
352
336
315
310
318
331
337
327
314
309
319
332
346
349
348
341
329
315
320
323
315
314
324
325
320
312
307
309
319
328
330
348
347
311
303
321
335
333
335
343
344
341
333
324
318
312
316
337
336
301
279
280
297
309
301
296
283
264
253
257
289
358
465
580
557
425
288
205
167
144
166
225
285
309
315
314
311
309
315
308
305
319
324
328
321
317
317
323
327
334
352
350
334
329
335
344
344
346
358
374
383
378
375
381
394
404
400
408
418
400
376
359
353
354
349
334
317
317
316
306
297
293
303
326
324
292
282
294
305
320
325
313
301
298
303
310
311
314
326
339
317
291
297
318
315
298
297
304
311
308
305
304
307
314
324
327
323
325
322
317
324
338
349
354
348
339
336
334
335
338
339
333
326
314
311
313
317
327
328
316
303
294
283
280
313
389
500
606
571
425
279
204
161
152
193
267
321
330
332
335
319
309
320
327
334
345
345
328
321
324
332
343
349
346
346
354
360
360
368
389
390
372
366
375
392
396
391
389
393
401
410
415
402
379
371
367
353
335
339
347
336
316
302
303
308
306
296
288
289
296
306
309
306
298
307
320
308
301
303
288
283
291
300
303
303
306
310
318
330
330
315
302
299
307
322
338
341
327
313
313
332
331
313
301
306
316
326
333
326
328
343
325
300
303
319
329
323
320
324
326
323
327
345
348
336
324
325
344
357
339
336
353
353
355
367
351
327
319
318
330
333
338
346
337
316
313
320
306
288
275
267
283
325
392
474
599
612
464
297
204
163
189
254
312
326
321
325
319
344
366
333
284
282
318
317
301
302
323
364
359
317
318
361
375
347
334
355
370
380
378
379
384
431
464
415
373
399
460
461
441
408
372
361
385
411
407
359
299
301
359
372
319
274
272
339
346
269
240
277
319
314
304
320
331
296
276
277
264
291
326
294
251
273
300
284
317
383
345
233
237
318
326
274
279
312
327
336
331
333
301
272
302
329
352
398
365
310
320
312
281
285
341
357
349
375
435
453
428
410
408
448
469
485
459
402
430
415
405
518
449
255
316
483
409
304
322
336
343
348
355
369
415
554
655
655
611
316
235
248
163
142
220
301
349
364
402
417
380
334
310
324
377
413
365
318
330
360
416
417
340
303
336
368
395
401
367
351
365
382
385
390
396
401
401
396
394
400
412
415
404
391
388
389
377
363
339
325
321
317
307
297
279
262
251
235
215
198
194
209
237
249
260
260
259
264
267
266
255
247
246
251
262
262
267
280
285
282
285
285
286
293
291
284
264
266
267
243
228
251
284
267
191
158
165
191
199
173
158
159
174
186
210
232
206
184
205
243
246
210
189
232
308
393
428
379
316
239
177
140
141
157
193
265
331
349
334
316
330
397
429
365
325
343
370
391
402
408
407
396
402
403
415
445
410
359
354
392
426
436
438
437
437
438
468
499
495
462
434
486
524
433
334
352
413
417
382
366
374
390
377
335
366
448
402
262
226
282
331
338
320
324
333
322
307
341
387
344
269
246
287
343
325
274
286
293
284
279
290
306
312
312
308
335
395
365
313
300
297
305
326
347
337
326
334
334
328
317
313
312
323
336
342
328
299
290
338
406
477
575
571
471
350
247
185
181
221
276
328
331
303
274
266
276
275
264
268
265
258
264
255
240
234
216
222
296
376
366
259
151
149
193
260
294
286
271
291
349
404
393
337
334
369
396
388
375
377
389
400
433
467
525
618
574
433
414
467
508
487
437
425
461
499
513
434
361
397
454
432
392
389
407
407
402
428
522
531
381
327
400
449
436
429
446
503
602
566
402
381
452
445
416
429
472
502
461
422
470
458
376
379
415
330
248
295
416
520
611
654
652
510
271
190
220
258
282
273
369
493
413
345
394
457
474
289
179
300
400
373
321
325
395
464
425
358
352
402
388
320
369
521
469
303
297
406
647
653
449
198
271
413
457
417
381
400
430
409
466
574
529
252
169
273
276
250
283
333
368
397
416
358
533
537
151
3
91
259
348
295
247
305
419
428
373
305
292
305
249
248
339
417
315
216
263
373
403
328
331
319
291
266
208
276
386
325
186
167
290
391
331
238
303
390
413
454
432
381
339
284
188
149
253
355
309
263
268
223
199
249
309
396
289
175
291
440
378
228
223
351
432
338
228
251
333
357
312
288
337
473
518
400
248
241
308
394
400
350
337
413
492
429
380
372
251
223
313
392
340
217
189
240
289
312
349
395
435
329
174
162
250
298
274
250
264
274
286
303
319
359
377
334
291
272
301
315
289
288
311
330
329
321
319
363
471
386
202
192
257
306
301
274
268
285
295
294
270
232
221
273
378
500
611
582
462
335
251
192
182
218
266
306
327
325
312
301
314
340
348
336
343
336
324
316
293
290
301
307
312
299
274
271
283
282
286
263
265
276
273
277
280
285
305
300
288
286
282
289
298
272
260
268
277
260
224
216
221
217
216
209
211
199
205
210
209
190
162
165
169
139
80
59
86
120
121
119
94
85
117
185
244
280
310
290
267
234
181
200
265
297
307
286
248
243
260
271
250
230
225
243
262
293
317
309
260
241
267
226
183
223
308
380
467
515
471
366
261
191
152
169
244
281
257
279
333
333
275
260
277
303
300
298
320
350
360
335
337
385
434
403
354
383
461
514
468
414
416
464
530
578
553
517
497
501
525
548
512
449
417
407
395
382
381
392
394
391
419
456
403
350
357
382
381
375
389
441
400
301
287
329
370
378
364
356
362
368
372
384
389
390
411
430
433
448
465
444
433
464
522
473
372
351
384
398
408
427
402
361
352
366
383
387
384
399
405
364
340
364
443
553
653
650
536
359
266
252
253
270
312
358
382
390
392
395
380
379
390
391
377
379
387
389
387
399
404
389
372
385
405
415
405
388
378
390
413
393
377
382
381
366
373
373
362
360
367
371
364
359
359
349
330
323
321
325
323
315
307
309
307
294
288
284
276
282
301
306
314
347
360
358
350
350
334
306
285
284
287
269
260
268
254
241
284
260
146
99
108
113
108
95
97
123
136
118
112
113
120
135
172
184
119
91
133
191
155
78
94
209
342
361
442
488
410
315
250
167
98
117
220
310
324
305
275
262
284
312
342
358
352
373
433
437
365
319
313
334
363
369
346
322
332
364
413
458
443
357
318
376
419
398
382
384
395
429
461
472
450
408
373
339
326
311
297
301
297
294
313
339
339
315
302
277
267
282
310
321
321
326
330
335
341
339
347
344
308
301
325
327
309
316
334
340
346
337
314
317
341
336
328
330
339
338
329
320
316
308
313
330
323
297
299
285
264
251
239
243
300
397
471
580
585
465
317
245
209
178
207
284
354
371
350
352
378
394
401
383
362
365
379
387
403
411
421
412
401
395
409
433
456
451
386
338
351
388
402
414
407
395
403
455
521
458
373
383
419
439
452
412
364
357
352
355
369
367
351
345
370
386
363
325
322
324
305
307
323
334
355
359
334
322
336
364
357
319
307
336
380
398
338
289
313
341
357
362
358
361
369
363
372
378
378
380
381
381
383
375
354
347
385
451
411
323
305
332
342
333
309
290
295
339
421
537
587
506
356
254
207
192
231
268
296
318
327
330
333
339
347
351
357
340
321
322
340
352
315
280
283
305
332
347
342
345
345
353
359
348
362
404
413
425
446
442
422
408
408
419
418
405
395
385
383
383
353
317
297
271
262
280
297
311
317
313
283
267
270
279
279
287
312
337
348
296
254
270
300
322
329
317
304
324
339
329
307
300
312
316
325
339
324
314
321
328
334
352
357
325
303
309
332
357
343
302
285
299
315
293
256
262
299
351
431
516
552
514
414
321
273
216
166
183
255
296
308
307
297
304
316
340
359
343
312
312
323
301
267
253
264
285
294
325
341
316
311
329
335
341
333
322
300
295
309
319
360
394
356
343
365
400
378
324
291
293
313
318
315
306
273
233
205
193
186
182
219
245
215
190
202
217
223
239
261
271
276
298
322
327
332
354
368
353
349
366
376
370
349
331
324
341
370
409
392
333
307
318
331
335
331
323
320
323
324
326
319
302
289
284
300
308
280
288
359
472
510
396
225
113
72
64
72
96
140
207
240
188
143
158
186
205
199
194
208
214
214
215
228
246
261
278
291
308
323
334
325
326
338
344
332
334
356
375
377
379
394
395
393
415
428
428
430
426
410
401
413
424
418
374
351
363
390
385
354
339
345
363
369
354
370
397
399
379
381
427
439
408
401
461
447
388
380
416
458
433
396
409
451
476
476
417
380
400
421
436
403
352
345
367
392
385
384
416
448
472
454
410
392
438
512
622
653
655
654
653
560
398
349
375
391
412
448
474
450
420
446
514
478
391
393
459
509
486
423
414
457
496
499
480
477
493
462
420
446
501
445
402
467
505
450
432
455
463
482
469
425
404
427
461
448
401
385
397
387
324
269
308
372
337
256
253
292
367
405
297
216
272
340
330
318
287
269
265
238
244
292
321
295
266
310
337
290
282
297
315
305
283
293
310
303
335
355
305
272
267
254
245
246
260
271
269
260
260
263
268
254
225
213
248
328
426
543
553
447
303
205
153
153
198
262
288
290
286
289
299
295
289
298
309
304
288
281
276
268
265
259
252
248
252
260
272
285
286
288
290
290
301
315
324
323
318
318
321
322
319
319
321
306
289
279
271
255
237
232
235
238
229
217
220
226
236
241
238
223
234
254
272
285
273
261
255
216
218
222
188
180
195
199
197
188
231
294
324
323
316
326
344
369
377
376
376
389
411
400
350
332
343
364
384
387
369
344
343
367
396
385
341
321
340
402
486
581
576
480
348
247
185
167
192
235
302
338
313
298
334
343
321
320
337
353
335
321
334
353
362
357
350
353
359
359
352
352
354
367
374
384
411
441
415
353
343
368
387
409
421
403
376
366
374
379
347
313
296
295
293
291
287
290
310
337
300
248
256
285
294
287
287
285
278
282
293
307
326
327
280
246
264
296
317
322
329
337
344
347
355
357
369
377
367
361
364
364
362
363
359
347
342
347
350
362
387
363
319
312
318
306
289
290
305
369
472
604
644
541
397
289
192
162
217
305
365
362
337
329
337
351
368
368
339
341
372
392
375
382
376
341
320
347
364
366
374
380
392
375
371
423
444
422
389
379
390
386
387
389
381
397
426
430
412
377
340
383
393
339
299
295
281
281
280
286
327
331
285
253
260
284
306
290
266
258
266
318
362
369
328
294
305
336
359
316
264
275
346
400
397
355
364
403
404
425
457
443
416
413
395
377
370
379
393
431
444
450
436
389
392
442
418
359
358
441
586
653
650
542
325
225
245
288
296
283
325
377
378
360
382
403
402
416
386
340
336
360
380
410
428
393
357
360
376
385
387
385
384
384
388
391
395
403
397
395
399
403
403
405
408
408
397
385
381
400
446
381
274
270
299
296
296
306
309
309
309
303
295
289
289
289
290
292
295
297
301
306
328
333
290
264
271
280
290
304
298
279
274
283
287
284
283
275
267
252
235
227
232
227
213
198
185
163
134
96
64
48
36
23
11
13
51
121
222
319
417
393
282
164
78
30
17
45
108
195
234
240
239
233
238
245
243
246
233
207
188
198
220
240
256
256
245
237
220
211
219
226
246
249
268
307
342
329
296
264
284
322
344
354
372
370
357
344
331
319
322
334
340
322
319
345
372
382
381
376
372
376
385
396
393
394
402
400
387
392
391
397
399
355
334
356
396
417
417
412
417
440
449
450
453
464
460
440
422
426
442
429
380
354
357
350
341
355
360
347
335
306
286
283
310
367
435
550
613
514
347
234
177
165
194
259
298
304
300
283
255
230
232
237
241
247
260
269
262
257
258
267
294
317
303
279
287
305
316
330
342
340
326
328
337
362
365
347
343
349
361
368
371
384
409
383
327
304
316
321
313
309
313
313
313
326
328
334
331
315
317
325
338
357
361
356
345
323
311
316
340
347
326
306
318
332
339
337
340
347
330
321
318
314
336
343
289
244
242
242
249
258
265
257
254
261
272
252
227
209
241
313
378
502
608
536
365
208
136
157
237
338
369
323
305
319
341
354
349
341
344
368
397
402
405
414
427
418
421
425
422
445
468
461
450
452
471
463
444
435
423
435
460
486
494
486
473
446
439
411
366
362
364
338
338
368
358
324
309
333
343
333
340
348
351
355
348
349
399
484
541
529
501
509
535
539
525
514
489
477
484
519
528
500
483
510
524
485
459
452
458
465
446
443
424
423
419
364
324
344
375
370
329
323
367
465
542
625
578
411
278
238
233
212
194
227
323
370
338
307
312
287
274
330
364
294
258
296
369
380
318
304
392
390
260
219
285
338
330
312
315
328
341
345
341
340
339
347
367
393
403
356
327
313
301
310
326
308
274
259
264
269
276
282
282
274
267
271
278
277
268
268
281
292
295
297
294
297
310
311
298
294
304
305
303
299
320
323
299
296
302
299
294
293
284
277
272
266
264
245
236
234
220
208
201
172
146
163
224
318
426
474
395
284
188
133
97
98
128
196
252
266
252
245
250
263
270
269
270
263
260
264
261
262
256
258
273
282
283
273
270
283
295
310
319
297
266
280
298
313
311
309
298
286
297
319
322
299
292
285
258
244
254
259
261
272
276
264
243
236
230
241
263
272
260
276
310
321
316
302
299
316
337
354
363
370
402
427
417
397
393
416
421
388
364
356
351
345
330
306
303
334
362
342
291
264
288
315
293
232
198
237
329
436
557
652
627
457
285
215
208
200
225
301
338
328
320
335
349
352
360
372
371
366
376
364
344
341
346
350
343
337
333
337
337
337
350
362
340
320
300
296
307
314
320
314
308
313
325
332
319
299
292
270
253
249
238
237
240
241
252
270
275
264
269
256
242
247
264
273
275
283
272
276
285
276
302
331
320
293
310
337
396
395
322
293
319
351
370
334
302
298
306
296
287
287
285
292
303
320
337
336
336
296
266
316
452
586
653
652
557
384
268
255
310
392
431
422
393
381
400
422
415
413
426
404
383
399
413
400
386
401
424
440
440
429
438
467
459
430
447
439
395
363
379
418
415
365
332
362
448
523
492
430
465
516
493
453
437
463
547
596
609
615
612
624
630
601
544
511
554
569
514
480
474
468
423
417
477
499
426
394
426
439
453
472
417
376
423
439
407
422
462
428
363
361
429
492
443
277
239
323
365
339
269
253
266
248
232
252
331
436
557
605
478
292
192
191
171
152
208
280
281
251
247
260
271
283
266
239
228
249
265
273
252
213
232
263
244
215
199
209
235
250
249
248
256
262
269
276
276
282
290
297
308
313
311
305
299
289
290
295
283
261
248
236
236
244
242
238
237
235
241
244
246
248
255
270
277
275
276
278
288
294
287
291
298
297
289
289
300
312
320
329
329
327
309
302
301
297
291
275
266
257
226
213
234
241
205
152
103
93
97
100
103
101
104
107
146
239
343
436
411
303
217
167
119
125
185
275
318
301
299
317
324
360
391
365
334
329
318
312
337
361
360
370
386
401
369
358
387
379
375
426
436
369
347
377
390
397
413
449
508
487
415
396
418
462
490
467
403
372
369
372
381
386
398
375
346
331
339
342
345
353
345
323
314
334
344
331
315
270
262
295
310
281
255
245
272
324
311
277
269
281
324
357
349
308
298
317
329
325
281
246
251
272
286
279
264
255
250
244
234
261
311
311
313
415
571
539
354
192
130
125
160
222
263
281
274
250
226
212
220
212
193
192
228
258
263
270
277
294
291
295
301
270
289
298
280
286
326
331
340
357
420
404
330
327
333
348
371
372
386
398
406
419
447
409
379
405
373
315
288
298
319
319
275
267
317
383
376
291
248
272
239
206
234
260
272
293
363
435
460
490
493
483
462
431
464
521
548
541
532
522
581
603
539
488
485
475
475
515
539
549
544
511
443
393
406
430
431
503
606
628
565
494
419
400
325
249
226
277
387
434
377
344
382
451
476
414
366
402
427
428
425
420
415
377
382
384
381
415
439
421
419
479
426
384
402
454
428
342
325
368
407
426
439
449
389
318
321
345
346
334
309
302
348
379
309
226
239
277
272
265
278
287
268
252
264
271
268
252
244
255
261
258
275
287
292
254
239
268
288
287
264
248
255
262
245
229
218
198
199
202
222
232
243
244
248
247
221
218
251
316
415
497
483
405
318
253
208
163
147
159
201
240
242
244
255
266
276
271
262
268
291
298
269
242
244
267
259
235
221
241
262
228
192
174
190
222
234
247
275
277
254
265
290
279
272
294
310
292
300
306
276
284
278
248
268
274
284
297
311
315
339
371
346
326
348
390
414
433
450
411
360
345
335
343
340
334
348
323
311
350
393
353
290
277
295
293
272
247
238
262
288
291
277
265
270
328
367
297
208
161
207
328
434
530
508
388
279
213
178
152
157
215
264
293
319
314
307
320
330
327
323
323
326
322
333
354
407
407
339
318
352
383
399
392
389
402
420
418
408
429
438
442
455
454
435
444
441
430
432
431
419
413
410
404
388
356
323
311
334
372
372
320
297
350
391
366
370
366
331
342
371
380
371
419
429
389
360
363
413
406
342
329
341
367
343
296
307
363
374
401
452
496
487
424
402
409
428
392
341
324
329
378
400
447
601
650
579
408
296
263
266
285
339
389
374
338
375
415
429
431
501
557
533
536
504
489
532
559
542
460
443
512
569
556
499
496
542
571
570
572
516
466
523
497
416
431
508
540
493
479
550
632
520
360
323
356
397
416
399
360
338
345
382
446
371
268
286
368
373
309
314
346
315
280
299
327
333
357
372
315
276
320
385
344
280
267
271
280
302
318
291
256
246
259
318
378
332
259
204
197
220
218
203
270
394
538
563
469
349
288
194
123
171
300
349
292
262
255
233
238
265
289
300
336
362
326
268
260
291
340
341
289
272
302
353
395
335
265
309
363
368
334
300
317
343
372
386
368
365
372
393
446
413
319
273
285
311
300
296
304
298
301
307
314
312
311
301
281
271
267
273
287
300
323
330
292
283
323
306
259
259
300
329
320
319
310
318
359
340
289
289
328
348
321
279
282
326
352
302
257
270
340
340
259
254
267
240
234
241
264
346
455
556
562
477
358
263
213
231
224
248
286
288
291
306
305
305
311
315
314
323
395
408
294
251
290
309
302
307
311
323
341
345
347
362
422
412
332
322
339
350
366
369
369
376
390
402
435
426
349
308
312
313
293
295
300
303
298
275
262
285
319
340
325
272
253
268
288
285
279
267
264
279
290
297
316
333
323
308
280
291
313
285
271
268
274
293
297
293
311
348
358
303
279
315
361
357
325
316
321
327
313
281
264
277
297
296
294
305
309
300
302
273
226
216
253
314
400
531
589
538
395
264
201
172
185
231
294
330
333
351
350
282
257
285
315
322
321
331
349
364
358
351
340
318
316
319
311
316
330
338
368
387
355
341
365
396
400
406
426
424
383
370
390
403
399
369
335
327
334
336
329
318
317
319
314
307
295
291
311
324
304
295
325
347
330
308
297
304
318
320
321
322
319
324
320
308
308
316
316
319
322
317
314
315
314
318
316
309
315
322
318
310
307
306
305
300
297
292
295
303
305
302
299
306
310
304
297
293
289
289
289
286
286
275
267
271
276
273
268
264
254
227
198
187
211
272
355
469
490
390
249
138
76
52
55
61
86
130
172
176
171
201
219
210
221
230
205
184
181
176
192
197
190
191
222
269
296
319
307
280
283
323
363
379
385
409
448
487
518
539
532
475
436
454
490
499
473
447
437
435
439
443
434
404
376
364
369
378
395
402
394
376
368
387
405
370
300
291
327
388
376
322
329
349
305
250
235
229
256
293
303
290
274
283
303
312
304
262
246
267
289
253
222
220
242
273
286
291
304
317
317
342
376
378
384
369
330
314
329
356
379
372
337
315
298
291
298
303
294
295
300
314
336
335
315
312
366
468
523
572
550
423
300
208
133
137
219
316
366
358
337
334
339
342
362
391
391
342
289
285
308
322
336
345
343
335
343
359
377
389
392
394
430
465
428
381
378
412
438
445
448
455
453
446
449
452
424
406
426
432
396
357
347
358
366
371
369
375
389
388
379
373
368
378
388
384
383
367
330
300
319
336
321
311
313
316
322
343
345
338
328
315
310
299
301
320
341
342
328
348
372
370
385
405
395
378
374
356
348
366
385
384
360
358
368
376
366
353
365
384
369
357
365
347
334
328
334
344
342
352
349
349
353
357
369
361
338
330
337
357
370
396
421
419
370
351
395
431
434
414
396
399
386
373
362
361
366
365
348
306
311
343
363
341
292
285
320
353
411
511
625
589
448
299
206
184
227
308
379
384
371
391
418
435
400
383
405
434
434
433
437
438
434
412
407
433
453
446
425
410
391
390
389
386
387
390
397
400
392
388
385
385
394
385
366
377
397
390
375
367
372
376
375
372
375
385
386
387
394
351
302
282
283
278
265
251
225
205
206
219
236
257
267
269
288
309
299
267
256
267
283
282
273
272
280
285
286
285
280
271
284
306
307
297
277
262
272
293
299
296
298
300
303
324
337
326
310
307
319
323
313
302
308
319
319
323
337
351
361
366
369
370
374
380
387
392
381
353
343
341
332
329
331
333
334
333
333
328
327
328
321
309
291
294
356
448
564
609
524
379
276
206
193
245
319
346
333
330
335
349
352
348
354
350
339
348
360
355
344
342
344
348
353
359
360
361
364
362
365
375
372
352
349
364
376
389
393
394
394
392
396
402
407
403
392
384
378
366
336
318
319
323
312
303
304
306
304
306
323
325
312
301
305
318
321
315
308
304
307
323
326
312
303
304
303
306
309
312
317
318
321
312
307
314
318
307
298
308
325
318
294
293
302
304
306
314
310
297
298
317
329
315
309
319
327
317
301
302
302
307
321
327
329
332
339
346
343
345
341
339
326
301
297
307
306
302
299
299
302
302
293
294
309
303
271
265
284
307
374
475
576
529
409
289
220
175
150
168
224
293
321
311
297
297
312
315
315
324
323
314
313
321
329
331
333
330
335
346
355
358
361
364
367
373
371
363
363
373
381
386
396
405
408
401
398
414
406
389
386
391
381
365
348
324
303
304
321
324
317
307
295
298
311
317
312
308
308
315
327
327
316
315
328
332
318
313
324
326
320
318
317
321
322
314
324
331
316
312
323
324
323
331
327
324
325
329
316
306
320
320
323
323
328
334
338
350
364
358
338
330
333
325
318
317
311
310
310
303
305
307
309
311
306
287
276
303
359
431
517
606
555
431
320
251
193
160
186
255
316
338
334
325
328
341
347
339
334
338
343
357
367
341
321
334
355
366
364
351
350
361
372
380
383
383
382
387
398
403
403
405
399
398
405
412
414
404
395
386
377
370
359
350
339
322
310
308
310
311
309
301
299
306
307
303
298
298
297
302
307
316
314
309
312
324
336
328
307
305
318
322
320
327
329
316
304
302
309
319
313
307
307
307
305
322
346
349
340
338
346
354
359
355
338
325
328
335
332
318
308
311
315
309
306
309
315
326
316
282
260
288
349
432
541
609
526
377
259
210
183
177
220
293
328
326
310
302
304
310
315
320
324
324
328
331
329
331
334
329
327
333
336
336
343
345
350
356
370
381
377
368
372
382
387
397
412
415
396
390
404
408
398
380
364
351
334
326
329
336
330
312
300
300
310
313
312
312
315
319
325
334
331
317
316
322
331
332
321
326
323
304
303
318
323
317
313
316
317
309
311
322
333
334
330
325
322
326
330
335
342
343
340
330
322
324
321
292
276
285
292
298
307
313
309
283
263
256
251
253
290
376
477
597
589
451
299
209
154
140
180
254
313
328
318
302
297
305
312
315
312
311
317
325
332
329
323
330
334
331
335
341
350
350
348
342
344
361
373
372
369
376
389
395
394
400
415
423
414
406
397
384
368
361
362
346
327
321
319
318
318
314
310
316
326
331
338
339
313
292
297
311
322
325
320
317
317
323
329
326
332
345
337
326
333
334
327
324
326
323
325
334
341
341
339
353
363
359
353
365
357
334
328
314
303
307
307
308
309
312
318
320
312
297
279
281
298
358
461
592
621
507
343
229
178
188
232
286
310
314
319
308
303
314
324
328
327
328
331
336
337
340
342
337
333
343
353
352
352
357
358
351
349
355
357
357
366
373
378
386
395
395
392
391
388
390
382
362
349
338
328
321
317
311
312
320
318
302
289
292
304
318
318
310
317
323
313
311
322
319
300
304
319
320
310
308
314
323
326
320
307
308
319
331
339
336
342
353
345
338
336
331
329
329
323
309
306
305
306
309
311
296
292
299
297
280
257
246
275
346
439
558
576
475
338
237
205
190
185
222
286
318
306
297
303
316
328
325
319
319
329
337
336
334
338
346
334
318
325
332
334
341
352
348
350
366
365
361
362
369
384
385
379
385
393
393
388
386
385
377
371
360
351
343
326
317
307
301
303
305
302
305
315
325
332
331
324
328
338
320
305
310
314
310
309
310
311
314
321
328
325
325
327
337
347
351
350
351
350
350
349
355
357
344
326
317
314
307
306
309
310
311
319
329
324
292
273
286
320
399
493
587
527
392
280
227
200
178
197
249
312
322
302
305
320
322
321
327
327
352
370
359
322
297
301
308
286
245
210
204
214
224
231
241
257
276
294
313
349
368
352
307
299
320
337
347
348
340
323
309
313
321
332
339
313
318
322
315
254
184
158
212
255
272
286
310
322
321
330
383
418
375
290
289
318
288
253
241
247
256
259
214
214
254
291
293
279
257
255
262
266
267
267
268
279
287
254
217
208
220
237
225
196
189
187
171
173
210
279
368
499
511
371
232
168
148
146
162
167
198
250
278
292
298
295
287
291
324
353
318
262
254
282
313
325
318
314
327
342
349
363
374
379
393
406
408
390
386
404
427
443
430
421
435
446
445
448
460
438
402
393
400
403
387
372
379
387
385
386
384
385
391
398
392
385
385
393
394
396
407
412
410
415
418
412
411
412
421
419
424
433
443
445
438
442
456
455
435
419
415
411
405
400
403
402
400
392
376
371
375
381
374
355
328
320
355
438
535
638
630
508
358
261
206
192
224
292
343
346
329
320
326
332
338
341
339
331
323
327
326
322
324
324
314
305
311
319
326
325
315
313
324
337
342
333
329
336
341
342
344
348
353
366
372
357
341
342
349
331
307
294
292
293
288
286
286
287
289
292
289
286
289
289
293
305
302
289
291
302
292
282
286
294
299
295
289
288
294
303
308
308
320
333
340
328
315
321
340
346
332
316
317
324
312
306
310
306
305
311
302
287
288
291
293
286
270
248
250
291
373
471
592
598
460
304
220
165
151
195
266
307
309
298
298
307
312
317
315
313
316
319
314
317
321
325
326
321
320
334
338
316
307
317
332
344
347
349
354
365
372
373
382
392
388
382
384
389
389
386
379
366
354
346
346
341
337
332
321
312
307
312
318
319
316
315
316
327
337
334
322
318
322
317
313
317
316
308
310
316
317
313
316
324
323
318
322
327
318
308
308
318
323
316
313
315
326
336
345
351
356
351
347
353
361
358
359
360
346
332
326
318
310
314
324
327
323
319
317
323
313
294
288
316
391
472
565
608
495
341
249
211
192
208
240
281
320
330
331
333
333
336
336
336
326
325
348
359
340
322
328
342
353
355
350
343
346
349
345
342
349
361
374
379
374
377
382
384
395
405
415
408
394
387
381
374
360
357
355
344
333
333
337
326
318
314
321
332
332
324
313
312
320
323
320
326
329
325
320
319
320
315
314
319
324
320
317
312
307
307
320
329
327
319
315
315
311
311
314
316
323
321
317
315
327
350
356
343
342
345
354
358
355
353
353
349
341
334
334
331
330
330
323
313
312
312
315
316
311
297
291
311
368
444
547
600
499
352
245
200
179
187
227
287
325
327
320
325
332
333
321
326
335
342
347
342
336
340
353
358
342
333
346
352
354
359
359
359
360
365
374
384
386
378
381
393
398
398
394
396
400
390
376
362
354
346
334
318
314
311
305
296
297
303
297
283
282
293
301
303
304
298
294
299
303
306
307
309
315
315
310
306
303
306
307
311
310
308
308
304
313
324
314
304
304
306
304
308
317
321
317
315
318
326
333
332
323
315
332
358
372
364
354
356
368
375
374
373
367
360
356
350
344
343
344
338
333
331
331
330
332
330
315
294
283
309
377
466
564
612
522
370
254
193
185
218
285
343
346
327
317
322
334
341
342
341
345
345
344
351
348
342
354
361
354
350
345
350
358
360
364
366
368
376
385
392
398
404
402
400
410
418
405
395
396
401
402
396
386
370
351
335
333
335
333
329
321
319
327
326
315
314
319
320
316
319
321
318
316
319
325
338
337
319
312
317
326
332
321
315
308
307
310
313
314
315
317
318
318
324
331
325
314
320
325
323
320
323
326
325
318
315
326
334
335
339
341
349
348
341
339
339
342
338
329
317
318
327
320
298
287
293
301
304
295
287
274
257
266
315
393
483
589
575
435
286
189
153
177
239
299
326
323
310
308
318
326
328
328
327
330
336
340
335
337
336
333
336
343
353
361
365
366
358
360
369
381
385
382
385
397
410
416
420
421
418
428
430
426
422
410
402
397
389
382
367
359
363
365
358
357
354
351
347
347
353
359
363
364
366
364
356
357
366
374
371
358
348
353
361
363
358
355
359
364
368
370
368
369
370
372
374
372
369
365
361
361
362
364
366
366
367
365
363
366
385
402
393
372
373
390
393
387
382
374
368
367
368
362
361
364
354
346
337
335
337
340
339
328
303
284
293
338
421
520
619
578
451
314
238
206
208
244
292
328
340
335
335
346
353
354
357
357
360
366
366
364
364
367
368
373
386
383
368
362
364
375
381
383
388
394
395
391
393
399
404
407
415
419
423
413
398
390
388
381
368
352
341
336
328
324
314
309
309
305
304
307
310
307
315
324
310
294
297
303
308
314
320
315
306
305
308
323
324
312
308
312
316
320
327
315
305
306
324
335
319
306
311
315
317
326
328
322
318
316
324
339
354
356
351
356
362
357
352
346
340
336
333
332
333
327
321
319
319
315
312
317
319
312
297
278
280
312
376
464
584
595
478
339
230
171
169
209
272
320
325
315
314
321
331
332
330
331
334
332
335
347
348
340
336
341
348
349
340
332
336
344
344
344
346
349
360
369
366
364
371
382
386
383
381
380
383
382
379
366
347
333
321
312
311
309
302
300
300
298
298
305
310
307
307
311
310
302
301
307
311
309
313
307
299
296
295
297
303
306
309
309
302
307
312
300
296
301
306
303
302
301
305
312
320
333
345
345
338
336
348
356
359
348
337
330
321
315
312
304
301
303
306
305
303
307
308
303
286
268
265
295
361
445
561
575
460
312
211
154
147
185
255
308
316
306
303
304
310
322
328
325
324
323
320
315
315
320
323
329
332
332
333
337
337
337
347
359
362
348
344
361
384
395
392
390
396
404
407
405
401
394
382
368
361
359
339
320
312
317
317
314
313
320
325
316
310
309
301
305
318
317
313
316
321
324
324
323
322
321
320
320
318
316
315
319
323
326
326
321
319
328
342
346
346
346
34
