386
391
396
400
406
412
418
423
430
325
323
322
321
320
319
318
317
316
314
313
311
310
309
307
304
302
299
305
347
432
527
598
522
359
220
165
149
169
225
303
352
361
353
346
345
352
360
387
404
380
338
322
335
353
365
373
381
391
396
399
406
414
419
420
423
432
446
455
466
474
494
513
519
511
510
519
536
539
521
500
485
469
451
433
417
401
389
378
368
362
359
377
381
344
309
299
305
309
302
298
301
304
304
305
307
316
338
354
341
321
315
322
329
333
337
336
338
342
345
352
357
360
359
363
368
373
379
390
394
384
377
375
376
377
375
378
373
363
358
358
363
365
366
366
368
371
366
348
341
367
430
514
593
629
519
359
242
201
188
189
220
272
327
352
345
334
332
336
337
336
335
334
335
337
336
334
332
331
332
333
332
328
332
336
338
340
344
349
353
357
361
364
371
380
388
393
396
401
405
406
400
389
376
363
351
341
327
318
315
310
303
299
299
298
301
304
308
309
310
310
313
316
319
319
322
323
327
328
330
329
332
334
331
332
332
331
332
334
336
336
335
335
338
340
343
347
355
360
362
363
371
382
386
383
376
373
374
371
360
353
351
344
339
336
332
330
330
329
323
312
294
291
325
395
482
575
553
411
244
161
143
151
190
257
319
335
325
320
323
325
326
326
326
326
324
322
323
324
323
321
324
328
331
330
335
336
337
343
350
352
356
362
368
375
381
384
387
396
400
401
407
408
404
396
385
370
356
346
336
325
318
315
314
313
312
308
311
316
318
318
317
317
319
314
318
321
320
318
319
321
320
318
316
316
315
313
311
308
308
310
309
310
310
309
308
305
303
306
313
320
320
319
320
331
340
340
334
328
325
321
318
314
306
301
299
297
299
300
302
304
306
306
289
273
275
310
376
463
561
547
416
255
167
134
141
188
262
322
331
321
321
324
326
330
331
328
332
337
338
339
340
340
343
346
348
351
353
353
352
357
360
361
363
367
371
377
386
395
401
408
413
417
419
422
423
419
412
402
391
373
362
351
339
330
322
316
312
309
308
310
308
307
308
311
313
312
309
307
310
313
312
311
311
310
311
315
316
316
317
317
318
319
319
318
317
319
320
318
314
317
317
320
321
324
329
332
336
340
341
349
361
363
354
350
348
344
340
331
322
317
311
311
308
305
304
307
309
305
290
272
272
302
364
444
531
520
408
259
164
125
117
157
230
296
314
305
300
302
306
310
311
311
310
310
309
311
314
317
317
316
317
321
324
324
324
327
331
337
342
346
351
360
368
377
384
390
394
400
406
410
415
414
409
402
390
374
358
347
338
327
321
319
315
312
310
310
314
317
316
316
319
319
318
322
322
323
326
327
327
330
332
331
331
329
328
327
327
327
329
332
333
332
330
332
332
332
333
332
333
335
337
338
341
343
342
339
336
341
350
356
357
360
362
369
380
383
376
373
373
372
369
365
356
351
350
352
352
352
353
351
348
343
330
317
321
354
424
515
591
531
394
256
192
173
175
212
275
333
353
349
346
349
352
354
356
356
357
361
364
364
363
365
365
363
363
367
369
368
369
371
374
372
375
384
385
389
398
406
410
416
419
422
426
429
430
428
420
411
398
380
363
352
340
329
320
313
308
306
306
303
299
298
299
299
302
304
301
302
308
310
309
307
310
311
311
309
309
310
309
305
306
307
305
307
306
304
305
306
305
305
310
316
317
320
323
323
330
341
342
337
331
327
326
325
316
307
304
304
301
301
300
299
301
300
296
283
269
267
307
383
469
556
517
369
221
154
141
134
153
204
269
311
316
312
313
318
321
322
324
323
323
328
334
334
335
342
345
346
350
352
358
364
365
361
363
372
385
392
388
388
397
409
414
419
422
426
433
440
432
420
410
398
380
363
357
352
341
333
325
318
316
311
308
312
315
319
321
319
315
318
321
324
324
320
318
324
330
331
328
328
329
330
334
330
327
331
338
333
329
324
325
331
334
334
340
346
353
359
354
352
362
378
382
373
362
361
360
350
334
325
333
342
334
325
327
331
336
339
324
308
319
365
439
520
603
545
388
255
194
173
168
198
251
305
341
349
343
336
336
342
345
342
345
353
355
352
355
357
356
360
361
359
360
366
370
374
380
380
380
385
392
396
404
412
416
422
427
430
433
438
438
433
424
412
401
389
372
357
347
341
335
328
322
319
316
316
316
312
313
315
312
315
317
317
316
314
311
309
313
317
315
310
307
307
305
303
303
305
303
298
297
302
304
305
307
310
312
311
311
319
333
339
334
326
322
319
318
312
303
295
292
289
289
287
282
283
289
288
279
261
253
279
344
428
516
555
435
269
166
141
133
145
186
246
294
309
304
304
311
316
315
318
324
327
328
331
332
332
333
335
338
341
344
344
347
351
352
354
360
364
369
374
380
390
396
399
402
405
407
414
420
418
408
397
386
371
358
348
337
327
323
318
314
313
311
311
310
310
311
313
316
314
311
313
314
313
316
317
315
318
319
316
317
320
319
318
318
317
317
318
316
316
317
317
320
318
316
313
313
319
325
328
332
333
340
357
362
358
353
352
352
347
339
332
327
323
321
323
323
319
319
320
319
310
293
283
304
365
452
548
607
500
304
178
144
142
174
231
295
328
328
321
319
323
326
326
327
329
331
331
333
336
335
338
343
345
347
347
348
350
352
355
360
365
366
372
380
387
390
398
405
409
412
416
418
422
423
417
407
392
378
366
355
344
335
330
324
320
318
315
312
313
314
313
312
310
311
316
317
314
313
316
316
316
316
316
315
315
315
316
314
314
313
310
310
308
306
306
307
307
307
308
306
305
305
306
307
307
304
304
311
315
318
320
321
328
336
336
329
322
317
314
311
305
296
291
286
283
281
284
286
284
282
279
265
246
247
287
362
455
562
547
384
198
111
92
108
155
224
280
292
289
286
287
291
296
299
299
304
308
308
309
312
314
319
320
322
328
333
333
335
341
347
349
352
359
364
369
376
382
389
396
400
408
415
416
416
417
416
409
400
386
372
361
351
344
339
333
329
326
328
326
324
326
328
327
328
328
327
327
328
327
327
328
325
324
325
324
322
322
323
324
324
321
321
323
324
323
323
323
321
323
325
325
323
322
322
321
325
331
338
345
346
346
349
362
366
361
356
349
345
346
340
332
327
320
317
316
316
316
316
317
316
310
294
281
291
335
415
507
597
550
382
225
158
147
174
236
311
346
344
336
336
341
345
347
349
354
356
356
356
356
358
361
363
364
367
370
372
375
377
379
385
389
389
393
400
407
413
420
424
428
435
440
443
452
461
461
454
442
431
419
408
395
383
371
366
363
362
362
358
357
355
354
356
356
353
355
356
354
351
347
344
342
344
344
342
342
340
338
338
338
337
332
331
331
329
332
334
330
328
329
331
331
328
326
325
325
324
323
325
328
332
337
341
346
347
349
360
367
365
357
352
351
345
341
334
327
322
317
316
320
322
321
323
326
317
299
288
301
349
430
523
584
501
343
209
161
148
158
200
267
320
329
320
314
316
321
325
324
319
321
326
331
333
333
340
342
349
350
346
334
322
332
349
358
360
363
366
371
379
381
385
395
401
404
399
397
397
405
406
397
381
365
356
344
331
323
313
303
301
298
291
298
310
312
309
310
315
317
312
308
322
359
368
346
314
300
312
313
290
280
287
295
302
310
335
339
320
326
329
306
261
244
257
264
264
269
281
290
314
371
398
357
323
315
315
298
273
266
266
279
271
275
310
346
347
320
314
299
271
275
284
297
375
499
604
552
404
282
237
183
157
192
243
287
303
295
294
346
402
359
314
341
362
327
316
345
350
312
285
296
331
365
388
384
367
364
382
396
377
334
311
336
370
407
443
441
398
387
435
458
411
373
385
427
425
394
385
366
381
382
304
263
275
301
317
309
296
304
320
325
331
356
387
384
358
388
400
355
364
364
319
301
321
364
374
381
375
374
382
346
296
322
342
312
298
331
375
394
352
306
363
423
391
338
319
331
358
382
360
297
275
315
371
377
366
323
261
277
359
416
457
534
610
537
393
280
234
204
210
265
315
356
388
406
416
414
380
357
376
387
380
379
386
399
404
399
389
408
409
380
373
367
377
389
390
395
405
417
427
420
398
395
426
459
441
430
451
474
480
456
426
421
428
418
400
379
368
380
379
357
354
349
340
341
349
347
342
345
341
342
350
353
351
343
321
305
307
317
320
322
322
313
303
301
312
331
329
301
291
290
281
283
299
312
317
318
319
322
329
329
305
297
298
300
292
278
287
279
266
272
278
276
273
263
241
228
237
274
338
429
522
486
381
250
161
115
86
103
165
233
275
275
272
281
281
281
286
293
302
306
300
297
304
309
317
327
322
323
329
333
339
347
352
351
364
367
359
363
382
392
388
389
400
393
391
403
399
396
385
367
359
345
332
315
299
287
274
269
270
263
264
273
288
288
277
278
294
315
316
298
327
375
354
292
276
306
335
330
308
308
317
328
325
313
325
342
347
338
375
416
373
317
354
376
330
288
304
334
339
320
315
322
329
322
309
320
351
341
298
276
267
269
285
330
413
498
573
533
435
340
270
212
177
194
245
316
352
349
346
353
353
361
365
371
375
371
366
366
367
374
384
383
376
380
389
394
394
395
401
413
420
422
425
433
440
446
447
450
465
490
492
463
443
448
451
447
437
421
404
393
382
372
365
356
351
350
349
353
363
356
338
333
334
330
327
324
324
327
329
328
328
336
339
327
317
315
318
320
332
339
340
336
325
326
340
346
340
336
347
362
350
322
328
347
342
310
275
256
256
257
263
263
261
259
253
233
230
256
310
369
445
504
446
328
199
129
113
156
221
280
308
312
315
323
331
332
331
327
324
323
322
320
321
326
329
331
331
332
336
342
346
349
351
352
355
357
364
370
378
386
391
396
402
405
406
406
404
408
408
398
382
362
348
336
323
308
293
283
280
279
272
273
273
271
272
273
276
284
290
291
295
302
303
301
300
299
299
298
299
303
306
308
305
309
316
323
330
331
333
341
348
349
343
337
332
330
333
331
324
321
321
321
325
328
326
332
336
331
314
303
316
365
445
545
629
566
423
287
225
207
213
250
308
366
391
390
383
387
395
402
404
404
406
406
407
409
410
407
402
400
406
415
416
415
420
425
424
427
430
433
438
444
447
451
455
452
454
454
451
449
446
441
431
421
405
388
373
362
349
339
335
332
327
322
322
325
322
317
315
315
316
315
319
322
321
322
325
328
329
331
333
334
338
337
335
338
346
346
350
351
351
356
362
364
359
353
349
345
340
334
328
321
317
319
322
322
320
320
319
313
294
276
285
329
409
501
592
545
400
252
180
161
171
214
279
335
343
334
330
333
336
335
336
340
342
342
345
351
357
359
361
361
366
369
370
370
374
375
375
377
381
388
391
396
400
402
404
408
410
415
419
422
421
416
405
395
381
367
354
342
331
325
319
313
310
308
307
309
312
316
318
321
324
327
328
331
334
334
339
346
345
344
343
345
347
356
364
370
372
372
373
375
379
385
388
386
379
376
375
369
362
355
345
337
334
332
331
331
330
331
330
315
294
291
329
406
494
596
580
437
268
178
154
172
220
290
336
340
332
331
338
343
343
343
345
344
344
344
344
350
351
349
348
357
365
365
365
370
377
378
375
372
372
378
386
393
388
388
396
399
399
401
403
401
401
397
383
366
352
342
340
338
322
308
305
307
308
301
298
294
294
300
304
305
305
308
310
314
318
315
308
305
311
317
315
308
307
316
328
335
332
336
343
352
357
360
356
352
345
338
334
327
321
321
315
316
318
316
310
313
313
313
300
281
288
346
437
532
627
579
397
235
178
165
177
217
281
330
345
341
336
343
348
344
346
352
354
351
349
345
348
350
352
345
342
346
354
359
366
366
367
367
369
371
375
387
397
401
403
409
416
416
416
420
421
419
412
402
393
385
376
366
360
351
343
338
336
328
321
317
327
336
335
332
334
337
338
340
343
340
342
341
338
343
348
348
357
361
362
360
359
365
378
382
382
382
380
372
364
362
361
355
351
344
339
334
330
326
330
326
315
294
272
278
329
420
516
603
540
362
218
170
159
173
227
298
333
329
322
320
322
323
328
333
329
327
326
328
329
334
336
338
337
336
335
330
331
333
333
332
332
329
323
322
321
319
320
328
330
333
335
338
341
342
337
329
317
304
290
274
259
245
231
223
216
210
206
201
198
200
198
184
170
167
158
144
132
137
143
14
